wavelength (nm),irradiance (W/m^2/nm),
202,0.007934213,
202.1,0.007914421,
202.2,0.007887107,
202.3,0.007861121,
202.4,0.007846185,
202.5,0.007851201,
202.6,0.007882431,
202.7,0.007942195,
202.8,0.008028284,
202.9,0.008134574,
203,0.008252753,
203.1,0.008374399,
203.2,0.008493017,
203.3,0.008605202,
203.4,0.008710793,
203.5,0.008812008,
203.6,0.008912233,
203.7,0.009014657,
203.8,0.009121427,
203.9,0.009233132,
204,0.009348703,
204.1,0.009465743,
204.2,0.009580915,
204.3,0.009690582,
204.4,0.009791497,
204.5,0.009881413,
204.6,0.009959279,
204.7,0.010025217,
204.8,0.010080086,
204.9,0.010124924,
205,0.01016042,
205.1,0.010186845,
205.2,0.010204309,
205.3,0.010213211,
205.4,0.010214739,
205.5,0.010211113,
205.6,0.010205488,
205.7,0.010201552,
205.8,0.01020297,
205.9,0.010212961,
206,0.010233951,
206.1,0.01026758,
206.2,0.010314735,
206.3,0.010375728,
206.4,0.010450568,
206.5,0.010539244,
206.6,0.010641998,
206.7,0.010759487,
206.8,0.010892582,
206.9,0.011041972,
207,0.011207476,
207.1,0.011387287,
207.2,0.011577678,
207.3,0.011773015,
207.4,0.011966633,
207.5,0.012152288,
207.6,0.012325595,
207.7,0.012485925,
207.8,0.012637192,
207.9,0.012787921,
208,0.012950498,
208.1,0.013139211,
208.2,0.013368005,
208.3,0.013648302,
208.4,0.013987213,
208.5,0.014386608,
208.6,0.014843778,
208.7,0.01535237,
208.8,0.015903682,
208.9,0.016488123,
209,0.017096052,
209.1,0.017718397,
209.2,0.018347405,
209.3,0.018977283,
209.4,0.019605063,
209.5,0.020231075,
209.6,0.020858895,
209.7,0.021493798,
209.8,0.02214091,
209.9,0.022801899,
210,0.023472618,
210.1,0.024142329,
210.2,0.024793337,
210.3,0.025405072,
210.4,0.025959451,
210.5,0.026447172,
210.6,0.026873272,
210.7,0.027259889,
210.8,0.027644077,
210.9,0.028071106,
211,0.028584104,
211.1,0.029213073,
211.2,0.029965306,
211.3,0.030819863,
211.4,0.03172665,
211.5,0.03261021,
211.6,0.033379437,
211.7,0.033941529,
211.8,0.034219697,
211.9,0.034171412,
212,0.03380187,
212.1,0.033168285,
212.2,0.032371584,
212.3,0.03153561,
212.4,0.030779111,
212.5,0.030190614,
212.6,0.02981235,
212.7,0.029638893,
212.8,0.029630111,
212.9,0.029732245,
213,0.029898768,
213.1,0.030105114,
213.2,0.030353221,
213.3,0.030666567,
213.4,0.031080088,
213.5,0.031627833,
213.6,0.032331532,
213.7,0.033192453,
213.8,0.034186318,
213.9,0.035262467,
214,0.036348666,
214.1,0.037361494,
214.2,0.038220537,
214.3,0.038864282,
214.4,0.039261948,
214.5,0.039418081,
214.6,0.039367409,
214.7,0.039162282,
214.8,0.038856059,
214.9,0.038489104,
215,0.038081128,
215.1,0.03763168,
215.2,0.037129222,
215.3,0.036564124,
215.4,0.035940949,
215.5,0.035285316,
215.6,0.034641591,
215.7,0.034061456,
215.8,0.033587082,
215.9,0.033234893,
216,0.032988035,
216.1,0.03280136,
216.2,0.032617413,
216.3,0.032387939,
216.4,0.032092796,
216.5,0.031748,
216.6,0.031399758,
216.7,0.031108681,
216.8,0.030929649,
216.9,0.03089691,
217,0.031020614,
217.1,0.031293737,
217.2,0.031706659,
217.3,0.032260998,
217.4,0.032974847,
217.5,0.033876829,
217.6,0.034988425,
217.7,0.036303888,
217.8,0.037774116,
217.9,0.039303739,
218,0.040763636,
218.1,0.042017328,
218.2,0.042953298,
218.3,0.043512853,
218.4,0.043705731,
218.5,0.043607004,
218.6,0.043338287,
218.7,0.043037749,
218.8,0.042828935,
218.9,0.042795846,
219,0.042970812,
219.1,0.043337058,
219.2,0.043842822,
219.3,0.044422078,
219.4,0.045014811,
219.5,0.045580939,
219.6,0.046104447,
219.7,0.046588612,
219.8,0.047043164,
219.9,0.047469044,
220,0.04784575,
220.1,0.048124298,
220.2,0.048230498,
220.3,0.048078991,
220.4,0.047595495,
220.5,0.046740998,
220.6,0.045532015,
220.7,0.044046631,
220.8,0.042415174,
220.9,0.040796735,
221,0.039347847,
221.1,0.038194491,
221.2,0.037414724,
221.3,0.03703644,
221.4,0.037048249,
221.5,0.037414265,
221.6,0.038087192,
221.7,0.039013951,
221.8,0.040134448,
221.9,0.041377909,
222,0.042663801,
222.1,0.043911168,
222.2,0.045054464,
222.3,0.046061337,
222.4,0.046944937,
222.5,0.047764776,
222.6,0.048614807,
222.7,0.04960117,
222.8,0.0508138,
222.9,0.052299634,
223,0.054043735,
223.1,0.055962541,
223.2,0.057913967,
223.3,0.059720869,
223.4,0.061205633,
223.5,0.062225634,
223.6,0.062702516,
223.7,0.062637048,
223.8,0.062106087,
223.9,0.061244637,
224,0.060216773,
224.1,0.059183544,
224.2,0.058273579,
224.3,0.057563436,
224.4,0.057068242,
224.5,0.056746674,
224.6,0.05651674,
224.7,0.056280233,
224.8,0.055948374,
224.9,0.055462561,
225,0.05480446,
225.1,0.053993582,
225.2,0.053074905,
225.3,0.05210125,
225.4,0.051116406,
225.5,0.05014353,
225.6,0.049181265,
225.7,0.04820749,
225.8,0.047187469,
225.9,0.046085435,
226,0.044875162,
226.1,0.043548749,
226.2,0.042120791,
226.3,0.040629702,
226.4,0.039133649,
226.5,0.037704012,
226.6,0.036416742,
226.7,0.035343401,
226.8,0.034542963,
226.9,0.034057,
227,0.03390763,
227.1,0.03409938,
227.2,0.034622439,
227.3,0.035457404,
227.4,0.03657831,
227.5,0.037953178,
227.6,0.039542404,
227.7,0.041294038,
227.8,0.043140283,
227.9,0.04499492,
228,0.046757863,
228.1,0.048323081,
228.2,0.049593288,
228.3,0.050495739,
228.4,0.050995799,
228.5,0.051104577,
228.6,0.050877171,
228.7,0.050401808,
228.8,0.049781371,
228.9,0.04911185,
229,0.048464039,
229.1,0.047872765,
229.2,0.047336988,
229.3,0.046831853,
229.4,0.046329106,
229.5,0.045819405,
229.6,0.045329865,
229.7,0.044928832,
229.8,0.044715262,
229.9,0.044794478,
230,0.045245784,
230.1,0.046091659,
230.2,0.047278094,
230.3,0.048672983,
230.4,0.050084536,
230.5,0.051298505,
230.6,0.052124628,
230.7,0.052441181,
230.8,0.052225514,
230.9,0.051560678,
231,0.050613848,
231.1,0.049593647,
231.2,0.048698239,
231.3,0.048070449,
231.4,0.047773248,
231.5,0.047791131,
231.6,0.048053315,
231.7,0.048466726,
231.8,0.048945217,
231.9,0.049424856,
232,0.049863983,
232.1,0.050232487,
232.2,0.050500435,
232.3,0.050634009,
232.4,0.050600501,
232.5,0.050378959,
232.6,0.049969904,
232.7,0.049398481,
232.8,0.048708569,
232.9,0.04795217,
233,0.047177069,
233.1,0.046417502,
233.2,0.045689077,
233.3,0.044988665,
233.4,0.044298704,
233.5,0.043593926,
233.6,0.042850006,
233.7,0.042050737,
233.8,0.041193922,
233.9,0.040293329,
234,0.039379727,
234.1,0.038500244,
234.2,0.037719128,
234.3,0.037115695,
234.4,0.036779491,
234.5,0.036799193,
234.6,0.037245193,
234.7,0.038151282,
234.8,0.039499095,
234.9,0.041210317,
235,0.043152501,
235.1,0.045155459,
235.2,0.04703701,
235.3,0.048630652,
235.4,0.049810643,
235.5,0.050508667,
235.6,0.050719919,
235.7,0.050499036,
235.8,0.049945127,
235.9,0.049182214,
236,0.048337158,
236.1,0.047521095,
236.2,0.046818256,
236.3,0.046283129,
236.4,0.045944207,
236.5,0.045810693,
236.6,0.04587714,
236.7,0.046123799,
236.8,0.046514531,
236.9,0.04699505,
237,0.047495679,
237.1,0.047938932,
237.2,0.048249431,
237.3,0.048362954,
237.4,0.048231747,
237.5,0.047827168,
237.6,0.047141242,
237.7,0.046191465,
237.8,0.04502654,
237.9,0.043731497,
238,0.042424406,
238.1,0.041242836,
238.2,0.040320493,
238.3,0.03975941,
238.4,0.039607563,
238.5,0.039848117,
238.6,0.040403755,
238.7,0.04115327,
238.8,0.041954197,
238.9,0.042666628,
239,0.043174311,
239.1,0.043401008,
239.2,0.043321353,
239.3,0.042964248,
239.4,0.042406193,
239.5,0.041753216,
239.6,0.041114996,
239.7,0.040576502,
239.8,0.040176898,
239.9,0.039902866,
240,0.039698997,
240.1,0.039492371,
240.2,0.039221036,
240.3,0.038857668,
240.4,0.038420499,
240.5,0.037968634,
240.6,0.037587262,
240.7,0.037368388,
240.8,0.037394933,
240.9,0.037732146,
241,0.038425194,
241.1,0.039500634,
241.2,0.040966376,
241.3,0.042808385,
241.4,0.044986398,
241.5,0.04743104,
241.6,0.050045792,
241.7,0.052715073,
241.8,0.055318766,
241.9,0.057747733,
242,0.059918083,
242.1,0.061779664,
242.2,0.063317079,
242.3,0.064542387,
242.4,0.065481964,
242.5,0.066162304,
242.6,0.066598864,
242.7,0.066793132,
242.8,0.066737354,
242.9,0.066427146,
243,0.065875814,
243.1,0.065125399,
243.2,0.064249442,
243.3,0.063346331,
243.4,0.062523594,
243.5,0.061877532,
243.6,0.061473491,
243.7,0.061331185,
243.8,0.061418983,
243.9,0.061657978,
244,0.061935777,
244.1,0.062125628,
244.2,0.062108834,
244.3,0.061794749,
244.4,0.061135229,
244.5,0.060131193,
244.6,0.058830516,
244.7,0.057317997,
244.8,0.055700797,
244.9,0.05409131,
245,0.052591829,
245.1,0.05128193,
245.2,0.050210178,
245.3,0.049390528,
245.4,0.04880385,
245.5,0.048404405,
245.6,0.048130732,
245.7,0.047919351,
245.8,0.047719429,
245.9,0.047504741,
246,0.047279902,
246.1,0.047078821,
246.2,0.046955407,
246.3,0.046968545,
246.4,0.04716524,
246.5,0.047567821,
246.6,0.048168247,
246.7,0.048929981,
246.8,0.049796467,
246.9,0.050701956,
247,0.051581389,
247.1,0.052375403,
247.2,0.053030737,
247.3,0.053498347,
247.4,0.053732757,
247.5,0.053694193,
247.6,0.053355242,
247.7,0.052708979,
247.8,0.051775187,
247.9,0.05060177,
248,0.049259242,
248.1,0.047830185,
248.2,0.046396882,
248.3,0.045031355,
248.4,0.04379225,
248.5,0.04272852,
248.6,0.041888669,
248.7,0.041330534,
248.8,0.041125227,
248.9,0.041350895,
249,0.042074954,
249.1,0.043329305,
249.2,0.045087802,
249.3,0.047254546,
249.4,0.049669746,
249.5,0.05213323,
249.6,0.054438404,
249.7,0.056408652,
249.8,0.057924417,
249.9,0.058935707,
250,0.059458435,
250.1,0.059558361,
250.2,0.059329507,
250.3,0.058872156,
250.4,0.058275217,
250.5,0.057604358,
250.6,0.056895145,
250.7,0.056150584,
250.8,0.055344002,
250.9,0.054428263,
251,0.053351225,
251.1,0.052074715,
251.2,0.050592189,
251.3,0.048939032,
251.4,0.047190896,
251.5,0.045450162,
251.6,0.043824669,
251.7,0.042404594,
251.8,0.041245803,
251.9,0.040364132,
252,0.039740968,
252.1,0.039337597,
252.2,0.039112598,
252.3,0.03903677,
252.4,0.039101479,
252.5,0.039317646,
252.6,0.039707769,
252.7,0.040292939,
252.8,0.04107951,
252.9,0.042050017,
253,0.043161013,
253.1,0.044349696,
253.2,0.04554731,
253.3,0.046696051,
253.4,0.047761469,
253.5,0.048737032,
253.6,0.049640403,
253.7,0.050500535,
253.8,0.051343632,
253.9,0.052182264,
254,0.053012304,
254.1,0.053818746,
254.2,0.054588063,
254.3,0.055323212,
254.4,0.056054884,
254.5,0.056845291,
254.6,0.057780992,
254.7,0.058955508,
254.8,0.060445618,
254.9,0.062287866,
255,0.06446458,
255.1,0.06690135,
255.2,0.069480456,
255.3,0.072063368,
255.4,0.074518481,
255.5,0.076743709,
255.6,0.078682996,
255.7,0.080332726,
255.8,0.081744359,
255.9,0.083021788,
256,0.084312985,
256.1,0.085795172,
256.2,0.08764814,
256.3,0.090019391,
256.4,0.092987122,
256.5,0.096528783,
256.6,0.100512968,
256.7,0.104710074,
256.8,0.1088314,
256.9,0.112582584,
257,0.115722074,
257.1,0.118113176,
257.2,0.119756482,
257.3,0.120791579,
257.4,0.121464576,
257.5,0.122063633,
257.6,0.122833559,
257.7,0.123898888,
257.8,0.1252164,
257.9,0.126583265,
258,0.127700745,
258.1,0.128275265,
258.2,0.128122219,
258.3,0.127231166,
258.4,0.125766733,
258.5,0.12400385,
258.6,0.122222354,
258.7,0.120602786,
258.8,0.119161391,
258.9,0.117752056,
259,0.116125964,
259.1,0.114026197,
259.2,0.111280398,
259.3,0.10786331,
259.4,0.103911734,
259.5,0.099697885,
259.6,0.095569065,
259.7,0.091876146,
259.8,0.088901312,
259.9,0.086800227,
260,0.085570593,
260.1,0.085056646,
260.2,0.08498854,
260.3,0.08505258,
260.4,0.084968219,
260.5,0.084556066,
260.6,0.083767547,
260.7,0.082682267,
260.8,0.081473124,
260.9,0.080359031,
261,0.079558893,
261.1,0.079258755,
261.2,0.079590393,
261.3,0.080620685,
261.4,0.082347582,
261.5,0.084699481,
261.6,0.087542339,
261.7,0.090689731,
261.8,0.093919006,
261.9,0.09698996,
262,0.099665235,
262.1,0.101733032,
262.2,0.103034059,
262.3,0.103493727,
262.4,0.103152278,
262.5,0.102191481,
262.6,0.100943024,
262.7,0.099879314,
262.8,0.099576629,
262.9,0.100654505,
263,0.103695078,
263.1,0.109155445,
263.2,0.117286044,
263.3,0.128070637,
263.4,0.141206231,
263.5,0.15612401,
263.6,0.172053848,
263.7,0.18811685,
263.8,0.203423034,
263.9,0.21716304,
264,0.228674141,
264.1,0.237486358,
264.2,0.243352914,
264.3,0.24627241,
264.4,0.24650623,
264.5,0.244577123,
264.6,0.241232657,
264.7,0.237368629,
264.8,0.233905134,
264.9,0.231642211,
265,0.231126895,
265.1,0.232559259,
265.2,0.235770541,
265.3,0.240275626,
265.4,0.245381018,
265.5,0.250329137,
265.6,0.254440343,
265.7,0.25722041,
265.8,0.25842314,
265.9,0.258059042,
266,0.25635818,
266.1,0.253702856,
266.2,0.25054982,
266.3,0.247352215,
266.4,0.244500465,
266.5,0.242281701,
266.6,0.240866481,
266.7,0.240315689,
266.8,0.240599452,
266.9,0.241616027,
267,0.243206751,
267.1,0.245163582,
267.2,0.247233687,
267.3,0.249136988,
267.4,0.250599613,
267.5,0.251402099,
267.6,0.251434938,
267.7,0.250728072,
267.8,0.249452061,
267.9,0.247872126,
268,0.24627194,
268.1,0.244876832,
268.2,0.243798385,
268.3,0.243017929,
268.4,0.242419521,
268.5,0.241845581,
268.6,0.241161014,
268.7,0.240299564,
268.8,0.239276955,
268.9,0.238183283,
269,0.237150504,
269.1,0.236321932,
269.2,0.235839186,
269.3,0.235836688,
269.4,0.236448493,
269.5,0.237807736,
269.6,0.240020736,
269.7,0.243127746,
269.8,0.247058012,
269.9,0.251599893,
270,0.256405106,
270.1,0.261035784,
270.2,0.265039511,
270.3,0.268031449,
270.4,0.269763631,
270.5,0.270156202,
270.6,0.269287448,
270.7,0.267346003,
270.8,0.264556155,
270.9,0.261102731,
271,0.257077574,
271.1,0.252463281,
271.2,0.247158427,
271.3,0.24103825,
271.4,0.234035142,
271.5,0.226211195,
271.6,0.217803807,
271.7,0.209234412,
271.8,0.201067977,
271.9,0.193935621,
272,0.18843605,
272.1,0.185039003,
272.2,0.184005664,
272.3,0.18535059,
272.4,0.188837403,
272.5,0.194002168,
272.6,0.200202861,
272.7,0.20667183,
272.8,0.2125874,
272.9,0.217156176,
273,0.21970559,
273.1,0.219773546,
273.2,0.217173989,
273.3,0.212020453,
273.4,0.204697526,
273.5,0.195783175,
273.6,0.185949517,
273.7,0.175864546,
273.8,0.166111503,
273.9,0.157144481,
274,0.149273619,
274.1,0.142680206,
274.2,0.137439831,
274.3,0.133561736,
274.4,0.131017967,
274.5,0.129770939,
274.6,0.129787274,
274.7,0.131035211,
274.8,0.133469713,
274.9,0.137013242,
275,0.141549848,
275.1,0.146934777,
275.2,0.153021846,
275.3,0.159701188,
275.4,0.166915607,
275.5,0.17464707,
275.6,0.182874128,
275.7,0.191514437,
275.8,0.200385938,
275.9,0.209209645,
276,0.21765179,
276.1,0.225388529,
276.2,0.232169965,
276.3,0.237855611,
276.4,0.242417793,
276.5,0.24592172,
276.6,0.248491175,
276.7,0.250269463,
276.8,0.251377332,
276.9,0.251875424,
277,0.25173064,
277.1,0.250806039,
277.2,0.248883016,
277.3,0.245718511,
277.4,0.241125348,
277.5,0.235050577,
277.6,0.227628313,
277.7,0.219179994,
277.8,0.210165357,
277.9,0.201088188,
278,0.19239384,
278.1,0.184374507,
278.2,0.177121215,
278.3,0.170520409,
278.4,0.164303402,
278.5,0.158127037,
278.6,0.151663772,
278.7,0.144683203,
278.8,0.137102438,
278.9,0.129001712,
279,0.120600988,
279.1,0.112212053,
279.2,0.104177434,
279.3,0.096810808,
279.4,0.090357214,
279.5,0.084973104,
279.6,0.080730832,
279.7,0.077641705,
279.8,0.075685474,
279.9,0.074842676,
280,0.075115769,
280.1,0.076538112,
280.2,0.0791684,
280.3,0.083072591,
280.4,0.088299438,
280.5,0.094856595,
280.6,0.102696216,
280.7,0.111711863,
280.8,0.121750927,
280.9,0.132637765,
281,0.144193004,
281.1,0.156248913,
281.2,0.168650037,
281.3,0.18124375,
281.4,0.193869383,
281.5,0.206348884,
281.6,0.218489223,
281.7,0.230094945,
281.8,0.240983871,
281.9,0.251011076,
282,0.260083729,
282.1,0.268175673,
282.2,0.275334305,
282.3,0.281676394,
282.4,0.28737269,
282.5,0.292610327,
282.6,0.297548406,
282.7,0.302271367,
282.8,0.306751176,
282.9,0.310846567,
283,0.31433377,
283.1,0.316968813,
283.2,0.318558788,
283.3,0.319015559,
283.4,0.318369946,
283.5,0.316739498,
283.6,0.314262546,
283.7,0.311022712,
283.8,0.306995297,
283.9,0.302032402,
284,0.295889365,
284.1,0.288278469,
284.2,0.27893561,
284.3,0.267680239,
284.4,0.254469645,
284.5,0.23944218,
284.6,0.222956624,
284.7,0.205614474,
284.8,0.188263242,
284.9,0.17195561,
285,0.157865603,
285.1,0.147161044,
285.2,0.140851315,
285.3,0.139644739,
285.4,0.143837638,
285.5,0.15326226,
285.6,0.167305331,
285.7,0.184986063,
285.8,0.205080566,
285.9,0.22627035,
286,0.247290853,
286.1,0.26706155,
286.2,0.284784942,
286.3,0.300002449,
286.4,0.312600948,
286.5,0.322767852,
286.6,0.330900588,
286.7,0.33747444,
286.8,0.34290071,
286.9,0.347403837,
287,0.350950074,
287.1,0.353251411,
287.2,0.353846592,
287.3,0.352244148,
287.4,0.348088214,
287.5,0.341311084,
287.6,0.332240769,
287.7,0.321636656,
287.8,0.310646305,
287.9,0.300671041,
288,0.293162378,
288.1,0.289371402,
288.2,0.290105192,
288.3,0.295561234,
288.4,0.305286173,
288.5,0.318297834,
288.6,0.333327118,
288.7,0.349119135,
288.8,0.364708343,
288.9,0.379590665,
289,0.393752584,
289.1,0.407572195,
289.2,0.421636067,
289.3,0.436530058,
289.4,0.452663644,
289.5,0.47015963,
289.6,0.488822409,
289.7,0.508173441,
289.8,0.527534483,
289.9,0.546132843,
290,0.563197614,
290.1,0.57805418,
290.2,0.590189195,
290.3,0.599298713,
290.4,0.605321832,
290.5,0.608442618,
290.6,0.609066192,
290.7,0.607760619,
290.8,0.605157056,
290.9,0.601843431,
291,0.598267282,
291.1,0.59467373,
291.2,0.591118441,
291.3,0.587518075,
291.4,0.583737499,
291.5,0.579662199,
291.6,0.575230025,
291.7,0.570418677,
291.8,0.565203568,
291.9,0.559527274,
292,0.553322735,
292.1,0.54657185,
292.2,0.539406815,
292.3,0.532188669,
292.4,0.525530507,
292.5,0.520223465,
292.6,0.517062426,
292.7,0.516626506,
292.8,0.519069819,
292.9,0.523986948,
293,0.530419532,
293.1,0.537025553,
293.2,0.542360638,
293.3,0.54522095,
293.4,0.544939425,
293.5,0.541549631,
293.6,0.535759822,
293.7,0.528756545,
293.8,0.521873204,
293.9,0.516237332,
294,0.512505799,
294.1,0.510753476,
294.2,0.510537399,
294.3,0.511123438,
294.4,0.511775655,
294.5,0.512020035,
294.6,0.51180281,
294.7,0.511481092,
294.8,0.5116744,
294.9,0.513028388,
295,0.515982471,
295.1,0.520637106,
295.2,0.526741469,
295.3,0.533805519,
295.4,0.541248883,
295.5,0.548518671,
295.6,0.555135022,
295.7,0.560646592,
295.8,0.56454212,
295.9,0.56621222,
296,0.564974644,
296.1,0.560205486,
296.2,0.551544936,
296.3,0.5391028,
296.4,0.523592538,
296.5,0.506331702,
296.6,0.489087579,
296.7,0.473816692,
296.8,0.462342207,
296.9,0.456060911,
297,0.455734368,
297.1,0.461378923,
297.2,0.472242082,
297.3,0.486861891,
297.4,0.503201324,
297.5,0.518857039,
297.6,0.531375034,
297.7,0.538622312,
297.8,0.539184564,
297.9,0.532678668,
298,0.519904705,
298.1,0.502753845,
298.2,0.483891253,
298.3,0.466258966,
298.4,0.452515643,
298.5,0.444534854,
298.6,0.44308234,
298.7,0.447732729,
298.8,0.457031579,
298.9,0.468868333,
299,0.480941296,
299.1,0.491203041,
299.2,0.498176327,
299.3,0.5010781,
299.4,0.49974758,
299.5,0.494485286,
299.6,0.485867286,
299.7,0.474632466,
299.8,0.461660718,
299.9,0.447992415,
300,0.434808426,
300.1,0.423335539,
300.2,0.41466402,
300.3,0.409544831,
300.4,0.408266673,
300.5,0.410636185,
300.6,0.416087352,
300.7,0.423840445,
300.8,0.433042016,
300.9,0.442827029,
301,0.452317879,
301.1,0.460591533,
301.2,0.466700471,
301.3,0.4697768,
301.4,0.469216077,
301.5,0.464899414,
301.6,0.457351088,
301.7,0.447794551,
301.8,0.438024943,
301.9,0.430128804,
302,0.426105916,
302.1,0.427498457,
302.2,0.435105167,
302.3,0.448874236,
302.4,0.467973484,
302.5,0.491002939,
302.6,0.516276984,
302.7,0.542082969,
302.8,0.566878364,
302.9,0.589386559,
303,0.608615816,
303.1,0.623837968,
303.2,0.634565805,
303.3,0.640559312,
303.4,0.641899243,
303.5,0.639046764,
303.6,0.632885455,
303.7,0.62467705,
303.8,0.615902737,
303.9,0.608018567,
304,0.602198118,
304.1,0.599136485,
304.2,0.598972449,
304.3,0.601370605,
304.4,0.605705721,
304.5,0.611276435,
304.6,0.617469444,
304.7,0.623800554,
304.8,0.629840616,
304.9,0.635070471,
305,0.638779645,
305.1,0.640084778,
305.2,0.638107297,
305.3,0.632260352,
305.4,0.622547401,
305.5,0.609718399,
305.6,0.595214102,
305.7,0.580874869,
305.8,0.569259846,
305.9,0.559666623,
306,0.554158684,
306.1,0.552867713,
306.2,0.554667491,
306.3,0.558735528,
306.4,0.564166323,
306.5,0.570396278,
306.6,0.577230075,
306.7,0.58470409,
306.8,0.592855818,
306.9,0.601541315,
307,0.61036658,
307.1,0.618762569,
307.2,0.626136648,
307.3,0.632056024,
307.4,0.636345672,
307.5,0.639100173,
307.6,0.640618227,
307.7,0.641294591,
307.8,0.641515913,
307.9,0.641584319,
308,0.64167908,
308.1,0.641808338,
308.2,0.641771393,
308.3,0.641139267,
308.4,0.639274769,
308.5,0.635427336,
308.6,0.62890096,
308.7,0.61926147,
